# Time (Days) 	 Lbol (erg/s) 	 Mbol 	  U	B	V	Cousins_R	Cousins_I 
#  All magnitudes are given in the AB Magnitude System
5.000000e-01 1.000000e-10 0.000000e+00 0.000000e+00 0.000000e+00 0.000000e+00 0.000000e+00 0.000000e+00
1.500000e+00 1.207094e+39 -9.006928e+00 -6.266242e+00 -7.705198e+00 -8.475628e+00 -8.882743e+00 -9.186052e+00
2.500000e+00 8.179535e+40 -1.358440e+01 -1.239842e+01 -1.311630e+01 -1.355929e+01 -1.376197e+01 -1.373811e+01
3.500000e+00 3.527164e+41 -1.517114e+01 -1.458497e+01 -1.486626e+01 -1.513300e+01 -1.513712e+01 -1.502505e+01
4.500000e+00 9.333324e+41 -1.622767e+01 -1.589277e+01 -1.592848e+01 -1.611572e+01 -1.607181e+01 -1.595611e+01
5.500000e+00 1.811185e+42 -1.694748e+01 -1.663095e+01 -1.660618e+01 -1.673649e+01 -1.671154e+01 -1.663606e+01
6.500000e+00 2.903187e+42 -1.745976e+01 -1.715266e+01 -1.711599e+01 -1.719214e+01 -1.716522e+01 -1.702725e+01
7.500000e+00 4.319232e+42 -1.789109e+01 -1.759345e+01 -1.759555e+01 -1.760331e+01 -1.753248e+01 -1.732120e+01
8.500000e+00 5.478580e+42 -1.814924e+01 -1.788166e+01 -1.787882e+01 -1.786569e+01 -1.778516e+01 -1.753451e+01
9.500000e+00 6.743735e+42 -1.837483e+01 -1.812934e+01 -1.813371e+01 -1.810395e+01 -1.799432e+01 -1.771124e+01
1.050000e+01 8.089081e+42 -1.857232e+01 -1.836974e+01 -1.835940e+01 -1.830295e+01 -1.817547e+01 -1.785998e+01
1.150000e+01 9.294641e+42 -1.872316e+01 -1.854380e+01 -1.854397e+01 -1.845969e+01 -1.831755e+01 -1.800693e+01
1.250000e+01 1.028546e+43 -1.883313e+01 -1.867345e+01 -1.868716e+01 -1.859559e+01 -1.843148e+01 -1.810291e+01
1.350000e+01 1.112978e+43 -1.891879e+01 -1.877649e+01 -1.880569e+01 -1.870441e+01 -1.853888e+01 -1.819617e+01
1.450000e+01 1.181914e+43 -1.898404e+01 -1.885342e+01 -1.891165e+01 -1.879744e+01 -1.861991e+01 -1.827699e+01
1.550000e+01 1.234481e+43 -1.903129e+01 -1.891501e+01 -1.898619e+01 -1.887865e+01 -1.868921e+01 -1.833618e+01
1.650000e+01 1.266918e+43 -1.905945e+01 -1.895749e+01 -1.904792e+01 -1.894072e+01 -1.875303e+01 -1.838118e+01
1.750000e+01 1.291879e+43 -1.908063e+01 -1.898232e+01 -1.910628e+01 -1.900293e+01 -1.880454e+01 -1.841835e+01
1.850000e+01 1.301693e+43 -1.908885e+01 -1.899138e+01 -1.914394e+01 -1.905302e+01 -1.884618e+01 -1.845132e+01
1.950000e+01 1.294216e+43 -1.908259e+01 -1.898955e+01 -1.916934e+01 -1.909242e+01 -1.887429e+01 -1.846428e+01
2.050000e+01 1.284634e+43 -1.907452e+01 -1.897228e+01 -1.919205e+01 -1.912878e+01 -1.890641e+01 -1.848485e+01
2.150000e+01 1.261395e+43 -1.905470e+01 -1.893517e+01 -1.920024e+01 -1.915446e+01 -1.893058e+01 -1.850519e+01
2.250000e+01 1.229621e+43 -1.902700e+01 -1.888342e+01 -1.919428e+01 -1.918003e+01 -1.894242e+01 -1.852224e+01
2.350000e+01 1.195276e+43 -1.899625e+01 -1.882936e+01 -1.918496e+01 -1.919538e+01 -1.895814e+01 -1.852544e+01
2.450000e+01 1.151383e+43 -1.895562e+01 -1.876648e+01 -1.916071e+01 -1.919033e+01 -1.895259e+01 -1.852605e+01
2.550000e+01 1.105230e+43 -1.891121e+01 -1.869696e+01 -1.912134e+01 -1.918266e+01 -1.894643e+01 -1.854027e+01
2.650000e+01 1.056861e+43 -1.886262e+01 -1.860286e+01 -1.907442e+01 -1.917428e+01 -1.893956e+01 -1.855209e+01
2.750000e+01 1.005946e+43 -1.880901e+01 -1.849717e+01 -1.901688e+01 -1.915703e+01 -1.892183e+01 -1.855460e+01
2.850000e+01 9.553106e+42 -1.875294e+01 -1.839641e+01 -1.894483e+01 -1.912815e+01 -1.891103e+01 -1.856626e+01
2.950000e+01 9.053843e+42 -1.869466e+01 -1.828000e+01 -1.886790e+01 -1.909838e+01 -1.888661e+01 -1.858177e+01
3.050000e+01 8.561159e+42 -1.863391e+01 -1.815494e+01 -1.878584e+01 -1.906135e+01 -1.885802e+01 -1.857393e+01
3.150000e+01 8.106880e+42 -1.857471e+01 -1.802210e+01 -1.869918e+01 -1.901726e+01 -1.883032e+01 -1.859531e+01
3.250000e+01 7.683101e+42 -1.851642e+01 -1.788940e+01 -1.860699e+01 -1.897590e+01 -1.880327e+01 -1.859338e+01
3.350000e+01 7.315314e+42 -1.846316e+01 -1.775421e+01 -1.851872e+01 -1.892694e+01 -1.876621e+01 -1.861424e+01
3.450000e+01 6.976897e+42 -1.841173e+01 -1.760303e+01 -1.842260e+01 -1.887988e+01 -1.874311e+01 -1.862855e+01
3.550000e+01 6.682704e+42 -1.836496e+01 -1.745788e+01 -1.832918e+01 -1.882609e+01 -1.871268e+01 -1.865120e+01
3.650000e+01 6.417969e+42 -1.832107e+01 -1.730454e+01 -1.823633e+01 -1.878353e+01 -1.868687e+01 -1.865587e+01
3.750000e+01 6.203562e+42 -1.828418e+01 -1.716571e+01 -1.814822e+01 -1.873671e+01 -1.866219e+01 -1.867172e+01
3.850000e+01 6.009127e+42 -1.824960e+01 -1.702234e+01 -1.805963e+01 -1.868851e+01 -1.864233e+01 -1.868660e+01
3.950000e+01 5.830795e+42 -1.821689e+01 -1.689102e+01 -1.796916e+01 -1.864130e+01 -1.862070e+01 -1.869805e+01
4.050000e+01 5.673402e+42 -1.818718e+01 -1.675170e+01 -1.788336e+01 -1.859940e+01 -1.860674e+01 -1.870296e+01
4.150000e+01 5.499261e+42 -1.815334e+01 -1.662478e+01 -1.779957e+01 -1.854428e+01 -1.858086e+01 -1.870292e+01
4.250000e+01 5.359006e+42 -1.812529e+01 -1.647368e+01 -1.772633e+01 -1.850152e+01 -1.855991e+01 -1.870231e+01
4.350000e+01 5.228936e+42 -1.809861e+01 -1.636243e+01 -1.765159e+01 -1.846614e+01 -1.854379e+01 -1.869278e+01
4.450000e+01 5.058336e+42 -1.806259e+01 -1.623813e+01 -1.758624e+01 -1.841219e+01 -1.850508e+01 -1.867442e+01
4.550000e+01 4.928832e+42 -1.803443e+01 -1.612423e+01 -1.752124e+01 -1.837378e+01 -1.847810e+01 -1.866224e+01
4.650000e+01 4.789885e+42 -1.800339e+01 -1.602380e+01 -1.746834e+01 -1.832825e+01 -1.844344e+01 -1.863703e+01
4.750000e+01 4.623884e+42 -1.796509e+01 -1.590674e+01 -1.741120e+01 -1.827987e+01 -1.840242e+01 -1.860678e+01
4.850000e+01 4.483631e+42 -1.793165e+01 -1.582211e+01 -1.736642e+01 -1.824288e+01 -1.837137e+01 -1.857427e+01
4.950000e+01 4.339483e+42 -1.789617e+01 -1.569006e+01 -1.732615e+01 -1.819895e+01 -1.833425e+01 -1.854347e+01
5.050000e+01 4.187276e+42 -1.785740e+01 -1.558303e+01 -1.727701e+01 -1.815516e+01 -1.828877e+01 -1.850391e+01
5.150000e+01 4.040739e+42 -1.781873e+01 -1.551967e+01 -1.724764e+01 -1.811795e+01 -1.824967e+01 -1.846509e+01
5.250000e+01 3.903644e+42 -1.778125e+01 -1.543395e+01 -1.720797e+01 -1.807793e+01 -1.821272e+01 -1.842292e+01
5.350000e+01 3.757637e+42 -1.773986e+01 -1.536022e+01 -1.717558e+01 -1.803512e+01 -1.816338e+01 -1.838295e+01
5.450000e+01 3.625621e+42 -1.770103e+01 -1.527758e+01 -1.715700e+01 -1.799526e+01 -1.812315e+01 -1.834859e+01
5.550000e+01 3.475182e+42 -1.765502e+01 -1.518412e+01 -1.712181e+01 -1.794824e+01 -1.806922e+01 -1.830402e+01
5.650000e+01 3.343490e+42 -1.761308e+01 -1.509618e+01 -1.709820e+01 -1.791863e+01 -1.802775e+01 -1.826096e+01
5.750000e+01 3.219683e+42 -1.757211e+01 -1.499565e+01 -1.706856e+01 -1.788527e+01 -1.798938e+01 -1.822339e+01
5.850000e+01 3.090196e+42 -1.752754e+01 -1.488543e+01 -1.704422e+01 -1.784557e+01 -1.793885e+01 -1.817957e+01
5.950000e+01 2.972189e+42 -1.748527e+01 -1.478950e+01 -1.701471e+01 -1.781007e+01 -1.790260e+01 -1.813701e+01
6.050000e+01 2.886606e+42 -1.745354e+01 -1.467975e+01 -1.700504e+01 -1.778492e+01 -1.786776e+01 -1.810808e+01
6.150000e+01 2.771450e+42 -1.740934e+01 -1.460661e+01 -1.697238e+01 -1.774064e+01 -1.782353e+01 -1.806502e+01
6.250000e+01 2.699678e+42 -1.738085e+01 -1.450002e+01 -1.696391e+01 -1.772197e+01 -1.779455e+01 -1.803880e+01
6.350000e+01 2.606268e+42 -1.734262e+01 -1.442126e+01 -1.693512e+01 -1.769212e+01 -1.775841e+01 -1.800196e+01
6.450000e+01 9.801850e+41 -1.628085e+01 -1.352938e+01 -1.593904e+01 -1.660108e+01 -1.660215e+01 -1.692283e+01
6.550000e+01 2.637198e+39 -9.855432e+00 -7.298677e+00 -7.516277e+00 -7.920557e+00 -8.141905e+00 -8.744726e+00
6.650000e+01 2.076097e+38 -7.095694e+00 0.000000e+00 -2.864471e+00 -6.688701e+00 -7.345340e+00 -7.214305e+00
6.750000e+01 5.617887e+37 -5.676507e+00 0.000000e+00 0.000000e+00 -1.643879e-01 -3.813820e+00 -5.969855e+00
6.850000e+01 1.828732e+37 -4.457950e+00 0.000000e+00 -9.501699e-01 -5.081891e+00 -5.656803e+00 0.000000e+00
6.950000e+01 1.000000e-10 0.000000e+00 0.000000e+00 0.000000e+00 0.000000e+00 0.000000e+00 0.000000e+00
